 ** Video Info ** 
Video File:
	Name:	poisson.mp4
	Frame Count:	379
	Width:	1280
	Height:	720
	FPS:	27.0
Video Display:
	Window Resolution:	[2560 1080]
	Window Fullscreen:	True
	Drawn Size:	[1280.  720.]

 ** Column Definitions ** 
frame_num:	The frame index being displayed. Range is 1 to video frame count.
frame_flip_time:	The time returned by win.flip() for the current frame_num.
playback_duration:	current frame_flip_time minus the first video frame_flip_time.

 ** Per Frame Video Playback Data ** 
frame_num	frame_flip_time	playback_duration
1	50.793817	0.000000	
2	50.827399	0.033582	
3	50.860166	0.066349	
4	50.893504	0.099686	
5	50.926896	0.133079	
6	50.977353	0.183536	
7	51.010241	0.216423	
8	51.043449	0.249631	
9	51.076621	0.282804	
10	51.110132	0.316314	
11	51.160077	0.366260	
12	51.193914	0.400097	
13	51.227202	0.433385	
14	51.259928	0.466111	
15	51.293314	0.499497	
16	51.343474	0.549657	
17	51.376621	0.582803	
18	51.410169	0.616352	
19	51.443792	0.649975	
20	51.493761	0.699943	
21	51.526767	0.732949	
22	51.559956	0.766139	
23	51.593454	0.799636	
24	51.626837	0.833020	
25	51.676660	0.882842	
26	51.710269	0.916452	
27	51.743562	0.949745	
28	51.776885	0.983068	
29	51.810206	1.016389	
30	51.860009	1.066191	
31	51.893864	1.100046	
32	51.926750	1.132933	
33	51.959933	1.166116	
34	51.993463	1.199646	
35	52.043520	1.249703	
36	52.076603	1.282785	
37	52.110190	1.316373	
38	52.143246	1.349429	
39	52.193509	1.399691	
40	52.226710	1.432893	
41	52.260075	1.466258	
42	52.294074	1.500256	
43	52.326830	1.533013	
44	52.376967	1.583150	
45	52.410207	1.616390	
46	52.443570	1.649753	
47	52.476664	1.682847	
48	52.526623	1.732806	
49	52.560209	1.766392	
50	52.593433	1.799616	
51	52.643350	1.849533	
52	52.676662	1.882844	
53	52.710208	1.916391	
54	52.743426	1.949609	
55	52.793598	1.999781	
56	52.826886	2.033069	
57	52.860120	2.066302	
58	52.893629	2.099812	
59	52.943399	2.149582	
60	52.977244	2.183427	
61	53.010263	2.216445	
62	53.043442	2.249625	
63	53.076920	2.283103	
64	53.126867	2.333050	
65	53.159914	2.366096	
66	53.193299	2.399482	
67	53.226781	2.432963	
68	53.260195	2.466378	
69	53.310165	2.516348	
70	53.343417	2.549599	
71	53.376957	2.583140	
72	53.410194	2.616377	
73	53.443343	2.649526	
74	53.493627	2.699810	
75	53.526753	2.732935	
76	53.559979	2.766162	
77	53.594190	2.800373	
78	53.644012	2.850195	
79	53.677609	2.883792	
80	53.710204	2.916387	
81	53.743236	2.949419	
82	53.777782	2.983965	
83	53.826780	3.032962	
84	53.859857	3.066040	
85	53.893679	3.099862	
86	53.926725	3.132907	
87	53.960105	3.166288	
88	54.010181	3.216364	
89	54.043507	3.249690	
90	54.076926	3.283108	
91	54.110251	3.316434	
92	54.143656	3.349839	
93	54.193451	3.399633	
94	54.227024	3.433207	
95	54.259926	3.466109	
96	54.293708	3.499891	
97	54.343851	3.550034	
98	54.376660	3.582843	
99	54.410181	3.616364	
100	54.443267	3.649450	
101	54.476614	3.682797	
102	54.527137	3.733320	
103	54.560219	3.766402	
104	54.593827	3.800010	
105	54.627023	3.833206	
106	54.676604	3.882787	
107	54.710964	3.917147	
108	54.743449	3.949632	
109	54.776615	3.982798	
110	54.810176	4.016359	
111	54.860209	4.066392	
112	54.893374	4.099557	
113	54.926890	4.133073	
114	54.960372	4.166555	
115	54.993363	4.199546	
116	55.043441	4.249624	
117	55.076605	4.282788	
118	55.127034	4.333217	
119	55.160055	4.366238	
120	55.193624	4.399807	
121	55.226593	4.432776	
122	55.276614	4.482797	
123	55.309844	4.516027	
124	55.343770	4.549953	
125	55.376735	4.582918	
126	55.410169	4.616352	
127	55.460144	4.666327	
128	55.493521	4.699703	
129	55.526688	4.732870	
130	55.559877	4.766060	
131	55.593613	4.799795	
132	55.643744	4.849927	
133	55.676980	4.883163	
134	55.710323	4.916506	
135	55.743441	4.949624	
136	55.794381	5.000564	
137	55.826807	5.032990	
138	55.859884	5.066067	
139	55.893641	5.099824	
140	55.926954	5.133137	
141	55.976641	5.182824	
142	56.012354	5.218537	
143	56.043552	5.249735	
144	56.076642	5.282825	
145	56.110031	5.316214	
146	56.160064	5.366247	
147	56.193426	5.399609	
148	56.226727	5.432909	
149	56.260195	5.466378	
150	56.310206	5.516389	
151	56.343371	5.549554	
152	56.377040	5.583223	
153	56.410164	5.616347	
154	56.443505	5.649688	
155	56.493435	5.699618	
156	56.526975	5.733158	
157	56.560283	5.766466	
158	56.593428	5.799611	
159	56.626896	5.833079	
160	56.676562	5.882745	
161	56.710113	5.916296	
162	56.743475	5.949658	
163	56.776789	5.982972	
164	56.826892	6.033074	
165	56.859846	6.066029	
166	56.893472	6.099655	
167	56.926584	6.132767	
168	56.960192	6.166375	
169	56.993198	6.199381	
170	57.043343	6.249526	
171	57.077290	6.283473	
172	57.110144	6.316327	
173	57.143454	6.349637	
174	57.193366	6.399549	
175	57.227299	6.433482	
176	57.260071	6.466254	
177	57.293324	6.499507	
178	57.326794	6.532977	
179	57.377874	6.584057	
180	57.409922	6.616105	
181	57.443537	6.649720	
182	57.477240	6.683423	
183	57.526728	6.732911	
184	57.559861	6.766044	
185	57.593437	6.799619	
186	57.643205	6.849388	
187	57.676752	6.882934	
188	57.710728	6.916911	
189	57.743595	6.949777	
190	57.793443	6.999626	
191	57.826765	7.032948	
192	57.859989	7.066172	
193	57.893269	7.099452	
194	57.943449	7.149632	
195	57.976615	7.182798	
196	58.011100	7.217283	
197	58.044204	7.250386	
198	58.076634	7.282817	
199	58.129003	7.335186	
200	58.159817	7.366000	
201	58.193423	7.399605	
202	58.227224	7.433407	
203	58.260041	7.466223	
204	58.310478	7.516661	
205	58.343318	7.549501	
206	58.377149	7.583332	
207	58.410107	7.616290	
208	58.443384	7.649567	
209	58.493400	7.699583	
210	58.526487	7.732670	
211	58.559819	7.766002	
212	58.593519	7.799702	
213	58.643376	7.849559	
214	58.676564	7.882747	
215	58.710087	7.916270	
216	58.743290	7.949473	
217	58.793569	7.999752	
218	58.826699	8.032882	
219	58.859791	8.065974	
220	58.893387	8.099570	
221	58.926575	8.132758	
222	58.960003	8.166186	
223	59.010102	8.216284	
224	59.043154	8.249337	
225	59.077409	8.283592	
226	59.110187	8.316370	
227	59.159900	8.366083	
228	59.193407	8.399590	
229	59.226510	8.432693	
230	59.259919	8.466102	
231	59.293707	8.499890	
232	59.343489	8.549671	
233	59.376465	8.582648	
234	59.410111	8.616294	
235	59.443234	8.649417	
236	59.493920	8.700103	
237	59.526547	8.732730	
238	59.559904	8.766086	
239	59.594580	8.800763	
240	59.626490	8.832673	
241	59.676514	8.882697	
242	59.710070	8.916253	
243	59.743408	8.949590	
244	59.776443	8.982626	
245	59.816862	9.023045	
246	59.860606	9.066789	
247	59.894097	9.100280	
248	59.926756	9.132939	
249	59.959899	9.166082	
250	59.993320	9.199502	
251	60.043489	9.249671	
252	60.076535	9.282717	
253	60.110030	9.316213	
254	60.143523	9.349705	
255	60.193313	9.399496	
256	60.226483	9.432666	
257	60.276542	9.482725	
258	60.310159	9.516342	
259	60.343453	9.549636	
260	60.376651	9.582833	
261	60.409980	9.616163	
262	60.459836	9.666018	
263	60.493609	9.699791	
264	60.526685	9.732868	
265	60.559999	9.766182	
266	60.610139	9.816321	
267	60.643156	9.849338	
268	60.677003	9.883186	
269	60.710100	9.916282	
270	60.743337	9.949520	
271	60.793513	9.999696	
272	60.827206	10.033389	
273	60.859780	10.065963	
274	60.893423	10.099606	
275	60.926801	10.132984	
276	60.976486	10.182669	
277	61.010036	10.216219	
278	61.043260	10.249443	
279	61.076461	10.282644	
280	61.110254	10.316437	
281	61.160049	10.366231	
282	61.193678	10.399861	
283	61.226730	10.432913	
284	61.260014	10.466196	
285	61.310753	10.516936	
286	61.343266	10.549449	
287	61.376486	10.582669	
288	61.410222	10.616405	
289	61.443161	10.649343	
290	61.493167	10.699349	
291	61.526620	10.732803	
292	61.560037	10.766220	
293	61.596482	10.802664	
294	61.626660	10.832843	
295	61.676628	10.882810	
296	61.710017	10.916200	
297	61.743477	10.949660	
298	61.776658	10.982841	
299	61.810083	11.016266	
300	61.860097	11.066280	
301	61.893418	11.099601	
302	61.926832	11.133015	
303	61.960041	11.166224	
304	62.010099	11.216282	
305	62.043509	11.249692	
306	62.076663	11.282846	
307	62.110785	11.316967	
308	62.143453	11.349636	
309	62.193714	11.399897	
310	62.226724	11.432907	
311	62.259865	11.466047	
312	62.293383	11.499566	
313	62.326697	11.532880	
314	62.376491	11.582674	
315	62.410054	11.616237	
316	62.443735	11.649917	
317	62.476531	11.682714	
318	62.526695	11.732878	
319	62.560027	11.766210	
320	62.593327	11.799510	
321	62.626646	11.832829	
322	62.659927	11.866109	
323	62.710142	11.916325	
324	62.743436	11.949619	
325	62.793922	12.000105	
326	62.826731	12.032914	
327	62.859793	12.065976	
328	63.044097	12.250280	
331	63.076579	12.282762	
334	63.126641	12.332824	
335	63.159729	12.365912	
336	63.193538	12.399721	
337	63.226609	12.432791	
338	63.259852	12.466034	
339	63.310029	12.516212	
340	63.343130	12.549312	
341	63.376471	12.582654	
342	63.410066	12.616249	
343	63.459764	12.665947	
344	63.493777	12.699959	
345	63.526905	12.733088	
346	63.559776	12.765959	
347	63.593377	12.799559	
348	63.643738	12.849921	
349	63.676472	12.882655	
350	63.710024	12.916207	
351	63.743445	12.949628	
352	63.776463	12.982646	
353	63.827555	13.033737	
354	63.859919	13.066102	
355	63.893581	13.099764	
356	63.926753	13.132935	
357	63.976526	13.182708	
358	64.010090	13.216272	
359	64.043756	13.249939	
360	64.076486	13.282669	
361	64.109972	13.316155	
362	64.143295	13.349477	
363	64.193409	13.399592	
364	64.226860	13.433043	
365	64.259707	13.465889	
366	64.293311	13.499494	
367	64.343662	13.549845	
368	64.376421	13.582604	
369	64.409984	13.616167	
370	64.443133	13.649316	
