 ** Video Info ** 
Video File:
	Name:	conduite.mp4
	Frame Count:	308
	Width:	1366
	Height:	720
	FPS:	23.976023976023978
Video Display:
	Window Resolution:	[2560 1080]
	Window Fullscreen:	True
	Drawn Size:	[1366.  720.]

 ** Column Definitions ** 
frame_num:	The frame index being displayed. Range is 1 to video frame count.
frame_flip_time:	The time returned by win.flip() for the current frame_num.
playback_duration:	current frame_flip_time minus the first video frame_flip_time.

 ** Per Frame Video Playback Data ** 
frame_num	frame_flip_time	playback_duration
1	54.275812	0.000000	
3	54.292392	0.016580	
4	54.342419	0.066607	
5	54.375336	0.099524	
6	54.425743	0.149932	
7	54.459035	0.183223	
8	54.508908	0.233096	
9	54.559050	0.283238	
10	54.592061	0.316249	
11	54.642393	0.366581	
12	54.675702	0.399890	
13	54.708731	0.432919	
14	54.758789	0.482977	
15	54.792408	0.516596	
16	54.842387	0.566575	
17	54.891998	0.616186	
18	54.925807	0.649995	
19	54.975738	0.699926	
20	55.008674	0.732862	
21	55.042074	0.766262	
22	55.092204	0.816392	
23	55.125434	0.849622	
24	55.175304	0.899492	
25	55.208677	0.932865	
26	55.258680	0.982868	
27	55.308647	1.032835	
28	55.341984	1.066172	
29	55.392008	1.116196	
30	55.425321	1.149509	
31	55.458643	1.182831	
32	55.508654	1.232842	
33	55.541990	1.266178	
34	55.592512	1.316700	
35	55.625399	1.349587	
36	55.675641	1.399829	
37	55.709057	1.433245	
38	55.759048	1.483236	
39	55.808939	1.533127	
40	55.842532	1.566720	
41	55.891961	1.616149	
42	55.925474	1.649662	
43	55.975487	1.699675	
44	56.008668	1.732856	
45	56.042102	1.766290	
46	56.092336	1.816524	
47	56.125730	1.849918	
48	56.175670	1.899858	
49	56.225513	1.949701	
50	56.258977	1.983165	
51	56.308646	2.032834	
52	56.342074	2.066262	
53	56.375313	2.099501	
54	56.425692	2.149880	
55	56.458675	2.182863	
56	56.509004	2.233192	
57	56.542162	2.266350	
58	56.592091	2.316279	
59	56.642486	2.366674	
60	56.675654	2.399842	
61	56.708737	2.432925	
62	56.758773	2.482961	
63	56.792365	2.516553	
64	56.842070	2.566258	
65	56.875304	2.599492	
66	56.925531	2.649719	
67	56.958862	2.683050	
68	57.008750	2.732938	
69	57.042050	2.766238	
70	57.092051	2.816239	
71	57.142350	2.866538	
72	57.175655	2.899843	
73	57.225368	2.949556	
74	57.258803	2.982991	
75	57.292448	3.016636	
76	57.342068	3.066256	
77	57.375301	3.099489	
78	57.425419	3.149607	
79	57.458688	3.182876	
80	57.508989	3.233177	
81	57.558838	3.283026	
82	57.592379	3.316567	
83	57.642284	3.366472	
84	57.675534	3.399722	
85	57.708694	3.432882	
86	57.758780	3.482968	
87	57.792418	3.516606	
88	57.842090	3.566278	
89	57.891927	3.616115	
90	57.925530	3.649718	
91	57.975653	3.699841	
92	58.009012	3.733200	
93	58.042282	3.766470	
94	58.092423	3.816611	
95	58.125667	3.849855	
96	58.175357	3.899545	
97	58.208647	3.932835	
98	58.258812	3.983000	
99	58.292391	4.016579	
100	58.342017	4.066205	
101	58.375278	4.099466	
102	58.425428	4.149616	
103	58.475669	4.199857	
104	58.508945	4.233133	
105	58.558991	4.283179	
106	58.592234	4.316422	
107	58.625494	4.349682	
108	58.675755	4.399943	
109	58.708989	4.433177	
110	58.758829	4.483017	
111	58.808742	4.532930	
112	58.842293	4.566481	
113	58.892330	4.616518	
114	58.925621	4.649809	
115	58.958802	4.682990	
116	59.008989	4.733177	
117	59.042264	4.766452	
118	59.092160	4.816348	
119	59.125703	4.849891	
120	59.175573	4.899761	
121	59.208897	4.933085	
122	59.258977	4.983165	
123	59.308686	5.032874	
124	59.342374	5.066562	
125	59.391913	5.116101	
126	59.425470	5.149658	
127	59.475235	5.199423	
128	59.508908	5.233096	
129	59.542195	5.266383	
130	59.592113	5.316301	
131	59.625783	5.349971	
132	59.675698	5.399886	
133	59.725681	5.449869	
134	59.758765	5.482953	
135	59.808685	5.532873	
136	59.841968	5.566156	
137	59.875234	5.599422	
138	59.925430	5.649618	
139	59.958657	5.682845	
140	60.008743	5.732931	
141	60.042269	5.766457	
142	60.092266	5.816454	
143	60.141927	5.866115	
144	60.175631	5.899819	
145	60.225660	5.949848	
146	60.258894	5.983082	
147	60.291989	6.016177	
148	60.342350	6.066538	
149	60.375225	6.099413	
150	60.425464	6.149652	
151	60.458923	6.183111	
152	60.508774	6.232962	
153	60.542259	6.266447	
154	60.592287	6.316475	
155	60.642266	6.366454	
156	60.675565	6.399753	
157	60.725627	6.449815	
158	60.758678	6.482866	
159	60.809022	6.533210	
160	60.842293	6.566481	
161	60.875224	6.599412	
162	60.925466	6.649654	
163	60.958608	6.682796	
164	61.008692	6.732880	
165	61.058880	6.783068	
166	61.092042	6.816230	
167	61.141897	6.866085	
168	61.175605	6.899793	
169	61.208673	6.932861	
170	61.258929	6.983117	
171	61.292232	7.016420	
172	61.342070	7.066258	
173	61.391882	7.116070	
174	61.425461	7.149649	
175	61.475226	7.199414	
176	61.509020	7.233208	
177	61.542303	7.266491	
178	61.591981	7.316169	
179	61.625455	7.349643	
180	61.675577	7.399765	
181	61.708694	7.432882	
182	61.758950	7.483138	
183	61.792199	7.516387	
184	61.842058	7.566246	
185	61.875210	7.599398	
186	61.925437	7.649625	
187	61.975550	7.699738	
188	62.008946	7.733134	
189	62.058601	7.782789	
190	62.092049	7.816237	
191	62.125678	7.849866	
192	62.175597	7.899785	
193	62.208594	7.932782	
194	62.258632	7.982820	
195	62.308906	8.033094	
196	62.341932	8.066120	
197	62.391862	8.116050	
198	62.425380	8.149568	
199	62.475541	8.199729	
200	62.508870	8.233058	
201	62.542102	8.266290	
202	62.591982	8.316170	
203	62.625541	8.349729	
204	62.675208	8.399396	
205	62.725585	8.449773	
206	62.758610	8.482798	
207	62.808678	8.532866	
208	62.842060	8.566248	
209	62.875203	8.599391	
210	62.925270	8.649458	
211	62.958717	8.682905	
212	63.008902	8.733090	
213	63.041928	8.766116	
214	63.091927	8.816115	
215	63.125701	8.849889	
216	63.175330	8.899518	
217	63.208525	8.932713	
218	63.258817	8.983005	
219	63.308688	9.032876	
220	63.342090	9.066278	
221	63.392199	9.116387	
222	63.425452	9.149640	
223	63.459029	9.183217	
224	63.508833	9.233021	
225	63.541860	9.266048	
226	63.592199	9.316387	
227	63.642067	9.366255	
228	63.675623	9.399811	
229	63.725527	9.449715	
230	63.758713	9.482901	
231	63.792296	9.516484	
232	63.842186	9.566374	
233	63.875170	9.599358	
234	63.925288	9.649476	
235	63.958610	9.682798	
236	64.008574	9.732762	
237	64.058543	9.782731	
238	64.091957	9.816145	
239	64.142282	9.866470	
240	64.175542	9.899730	
241	64.225432	9.949620	
242	64.258945	9.983133	
243	64.308860	10.033048	
244	64.342130	10.066318	
245	64.375140	10.099328	
246	64.425394	10.149582	
247	64.458592	10.182780	
248	64.508864	10.233052	
249	64.558860	10.283048	
250	64.592028	10.316216	
251	64.642283	10.366471	
252	64.675443	10.399631	
253	64.708533	10.432721	
254	64.758782	10.482970	
255	64.792061	10.516249	
256	64.842175	10.566363	
257	64.875140	10.599328	
258	64.925262	10.649450	
259	64.975398	10.699586	
260	65.008805	10.732993	
261	65.058999	10.783187	
262	65.092235	10.816423	
263	65.125312	10.849500	
264	65.175529	10.899717	
265	65.208434	10.932622	
266	65.258981	10.983169	
267	65.292216	11.016404	
268	65.342236	11.066424	
269	65.391814	11.116002	
270	65.425359	11.149547	
271	65.475618	11.199806	
272	65.508859	11.233047	
273	65.558874	11.283062	
274	65.592127	11.316315	
275	65.625267	11.349455	
276	65.675472	11.399660	
277	65.708732	11.432920	
278	65.758884	11.483072	
279	65.792168	11.516356	
280	65.842272	11.566460	
281	65.891813	11.616001	
282	65.925191	11.649379	
283	65.975442	11.699630	
284	66.008624	11.732812	
285	66.043969	11.768157	
286	66.092542	11.816730	
287	66.125700	11.849888	
288	66.175503	11.899691	
289	66.225521	11.949709	
290	66.258817	11.983005	
291	66.308595	12.032783	
292	66.342187	12.066375	
293	66.375105	12.099293	
294	66.425269	12.149457	
295	66.458694	12.182882	
296	66.508575	12.232763	
297	66.542129	12.266317	
298	66.592165	12.316353	
299	66.642144	12.366332	
300	66.675222	12.399410	
